0.45000000000000007
0.43876000000000004
0.45564000000000004
0.43876000000000004
0.42188000000000003
0.4162600000000001
0.4162600000000001
0.405
0.41064
0.39376000000000005
0.38814000000000004
0.37688000000000005
0.3825
0.37126000000000003
0.35438000000000003
0.35438000000000003
0.35438000000000003
0.36000000000000004
0.37688000000000005
0.36564
0.35438000000000003
0.36564
0.35438000000000003
0.34876
0.35438000000000003
0.36564
0.35438000000000003
0.34314000000000006
0.36000000000000004
0.34876
0.34876
0.36564
0.35438000000000003
0.35438000000000003
0.34314000000000006
0.3375
0.34876
0.3375
0.3375
0.3375
0.34876
0.3375
0.32064000000000004
0.3375
0.34876
0.34876
0.3375
0.3375
0.3375
0.3375
0.33188
0.34314000000000006
0.34314000000000006
0.35438000000000003
0.34314000000000006
0.34314000000000006
0.34314000000000006
0.3375
0.34876
0.35438000000000003
0.34876
0.3375
0.32064000000000004
0.3375
0.3375
0.33188
0.3375
0.34876
0.36000000000000004
0.34314000000000006
0.3375
0.34314000000000006
0.34314000000000006
0.3375
0.3375
0.33188
0.3375
0.33188
0.3375
0.3375
0.34314000000000006
0.34876
0.35438000000000003
0.35438000000000003
0.3375
0.3375
0.34314000000000006
0.3375
0.34314000000000006
0.34314000000000006
0.34314000000000006
0.3375
0.33188
0.33188
0.34314000000000006
0.36000000000000004
0.3375
0.3375
0.3375
0.32626000000000005
0.32626000000000005
0.32064000000000004
0.32064000000000004
0.33188
0.33188
0.34876
0.34876
0.34876
0.35438000000000003
0.34314000000000006
0.33188
0.30938000000000004
0.30376000000000003
0.32064000000000004
0.33188
0.3375
0.3375
0.34314000000000006
0.3375
0.33188
0.33188
0.32064000000000004
0.32626000000000005
0.3375
0.33188
0.3375
0.34314000000000006
0.34314000000000006
0.3375
0.3375
0.34314000000000006
0.3375
0.3375
0.3375
0.3375
0.3375
0.32064000000000004
0.32064000000000004
0.3375
0.34876
0.3375
0.32626000000000005
0.3375
0.34876
0.34876
0.3375
0.3375
0.3375
0.3375
0.33188
0.32064000000000004
0.32626000000000005
0.33188
0.34876
0.34876
0.3375
0.3375
0.34314000000000006
0.36000000000000004
0.36564
0.36564
0.37126000000000003
0.37126000000000003
0.37688000000000005
0.38814000000000004
0.39938
0.39376000000000005
0.39376000000000005
0.41064
0.405
0.41064
0.37688000000000005
0.37688000000000005
0.41064
0.42188000000000003
0.43314
0.45000000000000007
0.46126
0.47250000000000003
0.47250000000000003
0.47814
0.47250000000000003
0.47250000000000003
0.46126
0.47814
0.48376
0.47250000000000003
0.47250000000000003
0.47250000000000003
0.45564000000000004
0.43314
0.42750000000000005
0.4162600000000001
0.39376000000000005
0.36564
0.36000000000000004
0.34314000000000006
0.34314000000000006
0.3375
0.3375
0.3375
0.34314000000000006
0.35438000000000003
0.36000000000000004
0.34314000000000006
0.36000000000000004
0.36000000000000004
0.34876
0.3375
0.32626000000000005
0.32626000000000005
0.32064000000000004
0.31500000000000006
0.30376000000000003
0.32064000000000004
0.33188
0.32626000000000005
0.31500000000000006
0.3375
0.32064000000000004
0.30938000000000004
0.31500000000000006
0.32064000000000004
0.33188
0.32626000000000005
0.30376000000000003
0.29250000000000004
0.29814
0.29814
0.29814
0.29250000000000004
0.29814
0.29814
0.30376000000000003
0.30938000000000004
0.31500000000000006
0.30938000000000004
0.28126
0.25314000000000003
0.24188000000000004
0.23064
0.2025
0.21376000000000006
0.24188000000000004
0.26438000000000006
0.27
0.28688
0.32064000000000004
0.37126000000000003
0.44438
0.54
0.61314
0.71436
0.84936
0.97312
1.11936
1.26
1.27686
1.22624
1.02936
0.79312
0.64688
0.54564
0.52314
0.5625
0.5512600000000001
0.5343800000000001
0.52314
0.5512600000000001
0.47250000000000003
0.30376000000000003
0.20814000000000005
0.14064
0.10688000000000009
0.09000000000000008
0.07876000000000005
0.07313999999999998
0.10688000000000009
0.14626000000000006
0.18000000000000005
0.20814000000000005
0.27564000000000005
0.30376000000000003
0.29814
0.28126
0.24188000000000004
0.23626000000000003
0.24188000000000004
0.24750000000000005
0.26438000000000006
0.25876000000000005
0.25876000000000005
0.26438000000000006
0.27564000000000005
0.25876000000000005
0.23626000000000003
0.24750000000000005
0.24750000000000005
0.24750000000000005
0.27
0.27
0.28688
0.28688
0.28126
0.27564000000000005
0.26438000000000006
0.26438000000000006
0.25876000000000005
0.26438000000000006
0.24750000000000005
0.27
0.3375
0.31500000000000006
0.27
0.27
0.27
0.27564000000000005
0.26438000000000006
0.25876000000000005
0.26438000000000006
0.27564000000000005
0.28126
0.28126
0.28688
0.28688
0.27
0.26438000000000006
0.26438000000000006
0.27
0.27
0.26438000000000006
0.28126
0.27564000000000005
0.27
0.28126
0.27564000000000005
0.27
0.24750000000000005
0.25876000000000005
0.25876000000000005
0.24750000000000005
0.26438000000000006
0.27564000000000005
0.28126
0.28126
0.27564000000000005
0.27
0.26438000000000006
0.27
0.25876000000000005
0.24188000000000004
0.25314000000000003
0.25314000000000003
0.25314000000000003
0.25314000000000003
0.25314000000000003
0.24188000000000004
0.23064
0.24750000000000005
0.24750000000000005
0.23626000000000003
0.24750000000000005
0.24750000000000005
0.24750000000000005
0.24188000000000004
0.23626000000000003
0.23626000000000003
0.2025
0.19126000000000004
0.2025
0.22500000000000003
0.23626000000000003
0.21376000000000006
0.21376000000000006
0.22500000000000003
0.20814000000000005
0.20814000000000005
0.19688000000000005
0.19688000000000005
0.2025
0.19126000000000004
0.19688000000000005
0.18564000000000003
0.19688000000000005
0.22500000000000003
0.21938000000000002
0.21938000000000002
0.21938000000000002
0.23626000000000003
0.23626000000000003
0.23626000000000003
0.23626000000000003
0.24750000000000005
0.27
0.28688
0.29814
0.31500000000000006
0.32064000000000004
0.34314000000000006
0.35438000000000003
0.38814000000000004
0.42188000000000003
0.44438
0.46126
0.45564000000000004
0.47250000000000003
0.47814
0.47250000000000003
0.4668800000000001
0.4668800000000001
0.4668800000000001
0.45000000000000007
0.43314
0.43314
0.43876000000000004
0.42750000000000005
0.405
0.405
0.42188000000000003
0.4162600000000001
0.39938
0.37688000000000005
0.37126000000000003
0.37688000000000005
0.36000000000000004
0.35438000000000003
0.36000000000000004
0.35438000000000003
0.35438000000000003
0.36000000000000004
0.36564
0.34314000000000006
0.3375
0.3375
0.32626000000000005
0.33188
0.34314000000000006
0.3375
0.3375
0.34314000000000006
0.34314000000000006
0.32626000000000005
0.31500000000000006
0.31500000000000006
0.30376000000000003
0.30938000000000004
0.31500000000000006
0.32626000000000005
0.3375
0.3375
0.3375
0.33188
0.32626000000000005
0.32064000000000004
0.30938000000000004
0.32064000000000004
0.31500000000000006
0.30938000000000004
0.30938000000000004
0.30376000000000003
0.30938000000000004
0.32626000000000005
0.34314000000000006
0.3375
0.3375
0.33188
0.30938000000000004
0.30938000000000004
0.3375
0.32626000000000005
0.32064000000000004
0.31500000000000006
0.32064000000000004
0.33188
0.33188
0.34314000000000006
0.33188
0.30376000000000003
0.30938000000000004
0.30938000000000004
0.31500000000000006
0.30376000000000003
0.30376000000000003
0.32064000000000004
0.32626000000000005
0.32626000000000005
0.31500000000000006
0.30376000000000003
0.31500000000000006
0.30938000000000004
0.32064000000000004
0.32626000000000005
0.34314000000000006
0.37126000000000003
0.3375
0.33188
0.3375
0.32064000000000004
0.30938000000000004
0.30938000000000004
0.32064000000000004
0.32064000000000004
0.3375
0.34314000000000006
0.3375
0.3375
0.31500000000000006
0.31500000000000006
0.33188
0.3375
0.34314000000000006
0.34314000000000006
0.3375
0.32626000000000005
0.31500000000000006
0.30938000000000004
0.29250000000000004
0.30938000000000004
0.32626000000000005
0.33188
0.33188
0.32626000000000005
0.32626000000000005
0.32064000000000004
0.32626000000000005
0.33188
0.32064000000000004
0.32064000000000004
0.32064000000000004
0.32626000000000005
0.33188
0.33188
0.34876
0.3375
0.33188
0.3375
0.32064000000000004
0.32064000000000004
0.30938000000000004
0.30376000000000003
0.29814
0.29250000000000004
0.29250000000000004
0.30376000000000003
0.32064000000000004
0.3375
0.33188
0.32626000000000005
0.32064000000000004
0.31500000000000006
0.30938000000000004
0.30938000000000004
0.31500000000000006
0.31500000000000006
0.30376000000000003
0.32626000000000005
0.32626000000000005
0.30938000000000004
0.31500000000000006
0.33188
0.31500000000000006
0.29250000000000004
0.28688
0.30376000000000003
0.31500000000000006
0.32626000000000005
0.33188
0.3375
0.3375
0.3375
0.34314000000000006
0.34876
0.34876
0.34314000000000006
0.34876
0.36000000000000004
0.37126000000000003
0.37126000000000003
0.36564
0.3825
0.39376000000000005
0.39376000000000005
0.39376000000000005
0.38814000000000004
0.38814000000000004
0.38814000000000004
0.39938
0.42750000000000005
0.43876000000000004
0.46126
0.47250000000000003
0.46126
0.44438
0.42750000000000005
0.45000000000000007
0.47250000000000003
0.4668800000000001
0.47250000000000003
0.46126
0.44438
0.45564000000000004
0.46126
0.43314
0.42188000000000003
0.41064
0.38814000000000004
0.35438000000000003
0.33188
0.3375
0.3375
0.32064000000000004
0.33188
0.3375
0.36564
0.37688000000000005
0.36564
0.36000000000000004
0.35438000000000003
0.34876
0.34314000000000006
0.33188
0.3375
0.3375
0.33188
0.30376000000000003
0.29814
0.29814
0.30376000000000003
0.28688
0.29250000000000004
0.29250000000000004
0.29814
0.32626000000000005
0.32064000000000004
0.32064000000000004
0.31500000000000006
0.31500000000000006
0.30938000000000004
0.30376000000000003
0.30376000000000003
0.32064000000000004
0.31500000000000006
0.30938000000000004
0.30376000000000003
0.29814
0.31500000000000006
0.32626000000000005
0.31500000000000006
0.31500000000000006
0.28688
0.26438000000000006
0.25876000000000005
0.24188000000000004
0.2025
0.19688000000000005
0.23626000000000003
0.25314000000000003
0.29250000000000004
0.34876
0.39376000000000005
0.47250000000000003
0.5512600000000001
0.64126
0.71436
0.81562
0.9675
1.08562
1.2375
1.3106200000000001
1.29936
1.18686
0.93936
0.6975
0.5625
0.47814
0.48376
0.50064
0.495
0.4668800000000001
0.44438
0.47814
0.34876
0.19688000000000005
0.10688000000000009
0.05064000000000002
0.028140000000000054
0.0
0.011260000000000048
0.04500000000000004
0.07313999999999998
0.11814000000000002
0.14064
0.19688000000000005
0.25314000000000003
0.28126
0.28126
0.25876000000000005
0.26438000000000006
0.24188000000000004
0.23064
0.23626000000000003
0.24188000000000004
0.25876000000000005
0.26438000000000006
0.27
0.26438000000000006
0.25314000000000003
0.24750000000000005
0.23064
0.22500000000000003
0.24188000000000004
0.24188000000000004
0.24750000000000005
0.27564000000000005
0.29250000000000004
0.27
0.25314000000000003
0.25314000000000003
0.25876000000000005
0.25314000000000003
0.26438000000000006
0.27564000000000005
0.29250000000000004
0.28688
0.28126
0.27564000000000005
0.27564000000000005
0.27
0.27
0.26438000000000006
0.27
0.29250000000000004
0.28688
0.29250000000000004
0.29250000000000004
0.27564000000000005
0.26438000000000006
0.26438000000000006
0.27564000000000005
0.27
0.25314000000000003
0.26438000000000006
0.27
0.28126
0.28688
0.29250000000000004
0.27
0.27564000000000005
0.28688
0.28688
0.27564000000000005
0.27564000000000005
0.28688
0.27
0.27564000000000005
0.28126
0.27564000000000005
0.27
0.25314000000000003
0.25314000000000003
0.27
0.26438000000000006
0.25314000000000003
0.25314000000000003
0.25876000000000005
0.25876000000000005
0.25876000000000005
0.25876000000000005
0.25876000000000005
0.25314000000000003
0.24188000000000004
0.24750000000000005
0.24750000000000005
0.24750000000000005
0.25876000000000005
0.25876000000000005
0.24750000000000005
0.22500000000000003
0.21938000000000002
0.22500000000000003
0.21938000000000002
0.21938000000000002
0.21376000000000006
0.20814000000000005
0.23626000000000003
0.25314000000000003
0.22500000000000003
0.21938000000000002
0.23064
0.22500000000000003
0.23626000000000003
0.23064
0.23064
0.24188000000000004
0.24750000000000005
0.24750000000000005
0.24750000000000005
0.24188000000000004
0.23626000000000003
0.24750000000000005
0.25314000000000003
0.27
0.28126
0.29814
0.32064000000000004
0.32626000000000005
0.33188
0.34314000000000006
0.34314000000000006
0.36564
0.38814000000000004
0.405
0.43314
0.45000000000000007
0.47250000000000003
0.48938000000000004
0.50064
0.51188
0.5175000000000001
0.51188
0.50064
0.495
0.48938000000000004
0.47250000000000003
0.45564000000000004
0.4668800000000001
0.47250000000000003
0.47250000000000003
0.45000000000000007
0.42188000000000003
0.405
0.39376000000000005
0.39938
0.39376000000000005
0.39376000000000005
0.38814000000000004
0.3825
0.37126000000000003
0.35438000000000003
0.34314000000000006
0.34876
0.36000000000000004
0.34876
0.34876
0.35438000000000003
0.34876
0.34876
0.34314000000000006
0.3375
0.3375
0.33188
0.33188
0.3375
0.34314000000000006
0.3375
0.3375
0.34314000000000006
0.3375
0.32064000000000004
0.32626000000000005
0.35438000000000003
0.34314000000000006
0.33188
0.32626000000000005
0.32626000000000005
0.31500000000000006
0.32064000000000004
0.33188
0.32626000000000005
0.33188
0.3375
0.34314000000000006
0.34876
0.34314000000000006
0.3375
0.3375
0.3375
0.34314000000000006
0.33188
0.32626000000000005
0.3375
0.34314000000000006
0.3375
0.3375
0.34314000000000006
0.3375
0.34314000000000006
0.3375
0.33188
0.3375
0.3375
0.3375
0.3375
0.3375
0.34314000000000006
0.3375
0.34876
0.36000000000000004
0.35438000000000003
0.34314000000000006
0.33188
0.34314000000000006
0.36000000000000004
0.34314000000000006
0.3375
0.3375
0.35438000000000003
0.36000000000000004
0.35438000000000003
0.36000000000000004
0.35438000000000003
0.36564
0.36000000000000004
0.35438000000000003
0.37126000000000003
0.35438000000000003
0.3375
0.3375
0.3375
0.34876
0.34876
0.34314000000000006
0.3375
0.36000000000000004
0.37126000000000003
0.35438000000000003
0.34314000000000006
0.3375
0.3375
0.33188
0.33188
0.32626000000000005
0.32064000000000004
0.35438000000000003
0.37126000000000003
0.35438000000000003
0.34876
0.34876
0.34876
0.34876
0.34314000000000006
0.3375
0.3375
0.3375
0.34876
0.34314000000000006
0.34314000000000006
0.3375
0.33188
0.3375
0.33188
0.3375
0.3375
0.3375
0.3375
0.33188
0.3375
0.34314000000000006
0.3375
0.3375
0.3375
0.33188
0.3375
0.33188
0.3375
0.34314000000000006
0.36000000000000004
0.36000000000000004
0.34314000000000006
0.3375
0.32626000000000005
0.3375
0.3375
0.33188
0.33188
0.32064000000000004
0.3375
0.3375
0.32626000000000005
0.32626000000000005
0.33188
0.33188
0.32626000000000005
0.32626000000000005
0.31500000000000006
0.31500000000000006
0.3375
0.3375
0.33188
0.33188
0.34314000000000006
0.3375
0.32626000000000005
0.31500000000000006
0.32064000000000004
0.3375
0.3375
0.31500000000000006
0.31500000000000006
0.3375
0.34314000000000006
0.3375
0.33188
0.3375
0.33188
0.32626000000000005
0.31500000000000006
0.30938000000000004
0.32626000000000005
0.33188
0.33188
0.32626000000000005
0.32064000000000004
0.31500000000000006
0.32064000000000004
0.32626000000000005
0.32626000000000005
0.32064000000000004
0.30938000000000004
0.30938000000000004
0.32064000000000004
0.32626000000000005
0.32064000000000004
0.32064000000000004
0.32064000000000004
0.32064000000000004
0.32064000000000004
0.32626000000000005
0.32626000000000005
0.30376000000000003
0.30376000000000003
0.32064000000000004
0.32626000000000005
0.32626000000000005
0.30376000000000003
0.32064000000000004
0.33188
0.33188
0.33188
0.32626000000000005
0.3375
0.3375
0.3375
0.32626000000000005
0.32626000000000005
0.3375
0.32626000000000005
0.32064000000000004
0.3375
0.3375
0.33188
0.32064000000000004
0.34314000000000006
0.37126000000000003
0.36564
0.37126000000000003
0.36564
0.36564
0.38814000000000004
0.3825
0.37126000000000003
0.38814000000000004
0.405
0.39376000000000005
0.39376000000000005
0.405
0.42188000000000003
0.44438
0.44438
0.45564000000000004
0.44438
0.45000000000000007
0.43876000000000004
0.45564000000000004
0.46126
0.46126
0.46126
0.44438
0.43876000000000004
0.42188000000000003
0.405
0.39376000000000005
0.37126000000000003
0.36564
0.34314000000000006
0.33188
0.34314000000000006
0.3375
0.3375
0.3375
0.34314000000000006
0.36000000000000004
0.34876
0.34314000000000006
0.3375
0.3375
0.33188
0.33188
0.33188
0.32064000000000004
0.32626000000000005
0.33188
0.3375
0.3375
0.32064000000000004
0.30938000000000004
0.29250000000000004
0.29814
0.30376000000000003
0.28688
0.29814
0.30938000000000004
0.30376000000000003
0.29250000000000004
0.29814
0.30376000000000003
0.29250000000000004
0.27
0.29250000000000004
0.30376000000000003
0.30938000000000004
0.30376000000000003
0.30376000000000003
0.30938000000000004
0.29814
0.29814
0.29814
0.28688
0.28126
0.27
0.25876000000000005
0.24750000000000005
0.22500000000000003
0.21938000000000002
0.24188000000000004
0.25314000000000003
0.26438000000000006
0.30376000000000003
0.38814000000000004
0.44438
0.50064
0.5681400000000001
0.64126
0.74812
0.88312
1.0181200000000001
1.15312
1.2318600000000002
1.2487400000000002
1.1756199999999999
0.97312
0.77624
0.6075
0.5175000000000001
0.5175000000000001
0.54564
0.5175000000000001
0.48938000000000004
0.50064
0.50626
0.37126000000000003
0.21938000000000002
0.12938000000000005
0.10688000000000009
0.09564000000000006
0.07313999999999998
0.07313999999999998
0.09000000000000008
0.11814000000000002
0.135
0.17438000000000003
0.23626000000000003
0.27564000000000005
0.30938000000000004
0.31500000000000006
0.28126
0.24750000000000005
0.23626000000000003
0.24750000000000005
0.23626000000000003
0.23626000000000003
0.24188000000000004
0.25876000000000005
0.27
0.27564000000000005
0.26438000000000006
0.26438000000000006
0.25876000000000005
0.24750000000000005
0.24750000000000005
0.24750000000000005
0.25314000000000003
0.25314000000000003
0.26438000000000006
0.25876000000000005
0.26438000000000006
0.26438000000000006
0.25314000000000003
0.25314000000000003
0.24188000000000004
0.25876000000000005
0.25314000000000003
0.25314000000000003
0.27
0.27
0.25876000000000005
0.25876000000000005
0.25314000000000003
0.24750000000000005
0.25876000000000005
0.26438000000000006
0.26438000000000006
0.26438000000000006
0.28688
0.28688
0.27564000000000005
0.27
0.27
0.27
0.26438000000000006
0.27
0.26438000000000006
0.27564000000000005
0.28688
0.28126
0.26438000000000006
0.26438000000000006
0.25314000000000003
0.25314000000000003
0.27
0.25876000000000005
0.24750000000000005
0.26438000000000006
0.27564000000000005
0.27564000000000005
0.27
0.27
0.26438000000000006
0.25314000000000003
0.24750000000000005
0.24750000000000005
0.25314000000000003
0.24750000000000005
0.25876000000000005
0.27
0.26438000000000006
0.26438000000000006
0.25876000000000005
0.25876000000000005
0.24750000000000005
0.23626000000000003
0.24750000000000005
0.24750000000000005
0.23626000000000003
0.21938000000000002
0.20814000000000005
0.20814000000000005
0.21938000000000002
0.21376000000000006
0.19688000000000005
0.2025
0.2025
0.20814000000000005
0.21938000000000002
0.20814000000000005
0.19688000000000005
0.20814000000000005
0.20814000000000005
0.20814000000000005
0.19688000000000005
0.19688000000000005
0.19126000000000004
0.19688000000000005
0.20814000000000005
0.2025
0.19126000000000004
0.2025
0.20814000000000005
0.20814000000000005
0.20814000000000005
0.2025
0.20814000000000005
0.21376000000000006
0.24188000000000004
0.25314000000000003
0.24188000000000004
0.23626000000000003
0.25314000000000003
0.26438000000000006
0.29250000000000004
0.32064000000000004
0.33188
0.34876
0.37688000000000005
0.39376000000000005
0.41064
0.42188000000000003
0.42750000000000005
0.43314
0.44438
0.45000000000000007
0.45564000000000004
0.45000000000000007
0.44438
0.44438
0.43876000000000004
0.43314
0.43314
0.42750000000000005
0.42750000000000005
0.42188000000000003
0.41064
0.42750000000000005
0.43314
0.41064
0.37126000000000003
0.37688000000000005
0.37126000000000003
0.36564
0.36000000000000004
0.36000000000000004
0.35438000000000003
0.34876
0.34314000000000006
0.34314000000000006
0.34314000000000006
0.34314000000000006
0.3375
0.3375
0.34314000000000006
0.34314000000000006
0.35438000000000003
0.35438000000000003
0.34876
0.35438000000000003
0.34876
0.34314000000000006
0.34876
0.34314000000000006
0.33188
0.3375
0.34314000000000006
0.3375
0.34314000000000006
0.36000000000000004
0.35438000000000003
0.34314000000000006
0.3375
0.32626000000000005
0.3375
0.3375
0.34314000000000006
0.34314000000000006
0.34314000000000006
0.3375
0.34876
0.34314000000000006
0.3375
0.33188
0.3375
0.33188
0.32626000000000005
0.33188
0.34314000000000006
0.35438000000000003
0.34876
0.3375
0.3375
0.33188
0.32626000000000005
0.32064000000000004
0.32626000000000005
0.3375
0.34314000000000006
0.3375
0.31500000000000006
0.33188
0.3375
0.33188
0.32626000000000005
0.33188
0.33188
0.33188
0.33188
0.3375
0.3375
0.32626000000000005
0.32626000000000005
0.33188
0.32626000000000005
0.32626000000000005
0.3375
0.3375
0.3375
0.3375
0.3375
0.33188
0.3375
0.3375
0.32626000000000005
0.33188
0.31500000000000006
0.30938000000000004
0.3375
0.3375
0.32064000000000004
0.32626000000000005
0.33188
0.3375
0.34876
0.34314000000000006
0.32064000000000004
0.30938000000000004
0.29814
0.31500000000000006
0.32626000000000005
0.32064000000000004
0.32064000000000004
0.32626000000000005
0.32064000000000004
0.33188
0.33188
0.3375
0.3375
0.33188
0.32064000000000004
0.32064000000000004
0.32626000000000005
0.32626000000000005
0.33188
0.33188
0.33188
0.3375
0.3375
0.3375
0.32064000000000004
0.32064000000000004
0.32064000000000004
0.30938000000000004
0.30938000000000004
0.32064000000000004
0.32626000000000005
0.3375
0.3375
0.32626000000000005
0.31500000000000006
0.32064000000000004
0.33188
0.33188
0.33188
0.32626000000000005
0.32626000000000005
0.33188
0.33188
0.32064000000000004
0.32064000000000004
0.32064000000000004
0.33188
0.33188
0.33188
0.33188
0.33188
0.32064000000000004
0.32064000000000004
0.32626000000000005
0.33188
0.32064000000000004
0.30938000000000004
0.32064000000000004
0.32064000000000004
0.32626000000000005
0.33188
0.32064000000000004
0.32064000000000004
0.31500000000000006
0.31500000000000006
0.31500000000000006
0.30938000000000004
0.32626000000000005
0.32064000000000004
0.32626000000000005
0.33188
0.33188
0.31500000000000006
0.31500000000000006
0.32064000000000004
0.30938000000000004
0.32064000000000004
0.30938000000000004
0.32064000000000004
0.32626000000000005
0.32626000000000005
0.32064000000000004
0.30938000000000004
0.32626000000000005
0.32064000000000004
0.31500000000000006
0.32064000000000004
0.32064000000000004
0.32064000000000004
0.31500000000000006
0.31500000000000006
0.32064000000000004
0.31500000000000006
0.32064000000000004
0.32064000000000004
0.32064000000000004
0.31500000000000006
0.32626000000000005
0.30376000000000003
0.30376000000000003
0.32626000000000005
0.33188
0.32064000000000004
0.33188
0.32626000000000005
0.32626000000000005
0.32064000000000004
0.31500000000000006
0.31500000000000006
0.32064000000000004
0.34314000000000006
0.34876
0.32064000000000004
0.32626000000000005
0.32626000000000005
0.31500000000000006
0.31500000000000006
0.30938000000000004
0.30938000000000004
0.29814
0.30376000000000003
0.32626000000000005
0.32626000000000005
0.32064000000000004
0.32626000000000005
0.32064000000000004
0.32626000000000005
0.31500000000000006
0.29814
0.31500000000000006
0.3375
0.3375
0.32626000000000005
0.32064000000000004
0.32064000000000004
0.33188
0.33188
0.33188
0.32064000000000004
0.32626000000000005
0.31500000000000006
0.30376000000000003
0.33188
0.34314000000000006
0.32626000000000005
0.32064000000000004
0.32626000000000005
0.32626000000000005
0.32064000000000004
0.32626000000000005
0.3375
0.3375
0.34314000000000006
0.33188
0.32626000000000005
0.33188
0.32626000000000005
0.32626000000000005
0.32626000000000005
0.30376000000000003
0.30938000000000004
0.31500000000000006
0.32064000000000004
0.32626000000000005
0.33188
0.33188
0.33188
0.32626000000000005
0.32626000000000005
0.32064000000000004
0.32626000000000005
0.3375
0.3375
0.3375
0.32626000000000005
0.33188
0.31500000000000006
0.30938000000000004
0.32064000000000004
0.3375
0.3375
0.3375
0.3375
0.32626000000000005
0.31500000000000006
0.3375
0.34314000000000006
0.3375
0.3375
0.32626000000000005
0.33188
0.33188
0.32064000000000004
0.32064000000000004
0.32626000000000005
0.3375
0.34314000000000006
0.32626000000000005
0.32626000000000005
0.33188
0.32626000000000005
0.33188
0.33188
0.3375
0.33188
0.33188
0.33188
0.32064000000000004
0.33188
0.32064000000000004
0.32626000000000005
0.32626000000000005
0.32626000000000005
0.3375
0.3375
0.33188
0.32064000000000004
0.33188
0.32626000000000005
0.32064000000000004
0.33188
0.3375
0.33188
0.3375
0.31500000000000006
0.31500000000000006
0.32626000000000005
0.3375
0.3375
0.33188
0.3375
0.33188
0.33188
0.3375
0.3375
0.33188
0.32626000000000005
0.32626000000000005
0.33188
0.3375
0.3375
0.33188
0.3375
0.33188
0.32064000000000004
0.33188
0.33188
0.32626000000000005
0.3375
0.3375
0.33188
0.3375
0.33188
0.32626000000000005
0.32064000000000004
0.32626000000000005
0.34314000000000006
0.35438000000000003
0.37126000000000003
0.37126000000000003
0.3825
0.36564
0.37126000000000003
0.39376000000000005
0.38814000000000004
0.39376000000000005
0.39938
0.38814000000000004
0.38814000000000004
0.39938
0.41064
0.42188000000000003
0.43876000000000004
0.42750000000000005
0.43314
0.44438
0.43314
0.42188000000000003
0.4162600000000001
0.39938
0.42750000000000005
0.43876000000000004
0.4162600000000001
0.41064
0.405
0.38814000000000004
0.37688000000000005
0.34876
0.3375
0.32626000000000005
0.32626000000000005
0.32064000000000004
0.30938000000000004
0.30938000000000004
0.29814
0.30938000000000004
0.32626000000000005
0.3375
0.3375
0.32626000000000005
0.33188
0.32064000000000004
0.32064000000000004
0.32626000000000005
0.32626000000000005
0.33188
0.33188
0.33188
0.32626000000000005
0.32064000000000004
0.32626000000000005
0.30938000000000004
0.32064000000000004
0.31500000000000006
0.31500000000000006
0.30376000000000003
0.31500000000000006
0.32064000000000004
0.30376000000000003
0.30938000000000004
0.32626000000000005
0.32064000000000004
0.31500000000000006
0.31500000000000006
0.32626000000000005
0.30938000000000004
0.29814
0.31500000000000006
0.32064000000000004
0.31500000000000006
0.31500000000000006
0.30938000000000004
0.29814
0.29250000000000004
0.28126
0.27
0.24188000000000004
0.23064
0.25876000000000005
0.25314000000000003
0.25876000000000005
0.25876000000000005
0.27
0.32626000000000005
0.37688000000000005
0.45000000000000007
0.51188
0.57938
0.6975
0.82686
0.9675
1.0575
1.1025
1.11936
1.0575
0.93374
0.7706200000000001
0.63564
0.5850000000000001
0.6075
0.6075
0.5681400000000001
0.54564
0.54564
0.55688
0.44438
0.32064000000000004
0.24750000000000005
0.22500000000000003
0.20814000000000005
0.19126000000000004
0.19688000000000005
0.19126000000000004
0.21376000000000006
0.22500000000000003
0.26438000000000006
0.30376000000000003
0.33188
0.33188
0.32064000000000004
0.29250000000000004
0.27
0.26438000000000006
0.24750000000000005
0.24750000000000005
0.27564000000000005
0.27564000000000005
0.27
0.28688
0.28688
0.28126
0.27564000000000005
0.27
0.27564000000000005
0.28126
0.27564000000000005
0.28126
0.28688
0.28688
0.28126
0.27
0.27
0.27564000000000005
0.27564000000000005
0.27564000000000005
0.28688
0.27
0.27564000000000005
0.28688
0.28688
0.27
0.27564000000000005
0.28688
0.28688
0.28688
0.28688
0.28126
0.28688
0.29814
0.30376000000000003
0.28126
0.27564000000000005
0.27564000000000005
0.26438000000000006
0.28126
0.30376000000000003
0.29250000000000004
0.29250000000000004
0.28688
0.28688
0.27564000000000005
0.27564000000000005
0.27564000000000005
0.27564000000000005
0.27564000000000005
0.27
0.27564000000000005
0.28126
0.28126
0.27564000000000005
0.26438000000000006
0.26438000000000006
0.25314000000000003
0.25314000000000003
0.25876000000000005
0.26438000000000006
0.25876000000000005
0.25876000000000005
0.25314000000000003
0.24750000000000005
0.25876000000000005
0.27
0.24188000000000004
0.23064
0.21376000000000006
0.23626000000000003
0.24750000000000005
0.24750000000000005
0.23626000000000003
0.22500000000000003
0.22500000000000003
0.22500000000000003
0.21376000000000006
0.21376000000000006
0.20814000000000005
0.20814000000000005
0.21376000000000006
0.2025
0.19688000000000005
0.2025
0.2025
0.2025
0.18000000000000005
0.18564000000000003
0.18564000000000003
0.18000000000000005
0.17438000000000003
0.18564000000000003
0.19126000000000004
0.19126000000000004
0.17438000000000003
0.16876000000000002
0.18000000000000005
0.18564000000000003
0.19688000000000005
0.2025
0.18564000000000003
0.18000000000000005
0.18564000000000003
0.2025
0.2025
0.20814000000000005
0.23064
0.24750000000000005
0.25314000000000003
0.25876000000000005
0.27
0.29250000000000004
0.29814
0.32626000000000005
0.3375
0.34876
0.37126000000000003
0.37688000000000005
0.39376000000000005
0.39376000000000005
0.41064
0.42188000000000003
0.42188000000000003
0.43314
0.42750000000000005
0.43876000000000004
0.43876000000000004
0.42750000000000005
0.42188000000000003
0.4162600000000001
0.42750000000000005
0.41064
0.41064
0.41064
0.39938
0.405
0.405
0.405
0.39376000000000005
0.3825
0.38814000000000004
0.37688000000000005
0.38814000000000004
0.37688000000000005
0.37688000000000005
0.3825
0.37126000000000003
0.36564
0.37126000000000003
0.36000000000000004
0.36564
0.36564
0.36564
0.36564
0.36564
0.37126000000000003
0.36564
0.35438000000000003
0.34876
0.35438000000000003
0.36564
0.34876
0.34876
0.36000000000000004
0.35438000000000003
0.36000000000000004
0.34876
0.35438000000000003
0.36000000000000004
0.35438000000000003
0.35438000000000003
0.34314000000000006
0.36000000000000004
0.37688000000000005
0.34314000000000006
0.35438000000000003
0.37126000000000003
0.36564
0.36564
0.35438000000000003
0.35438000000000003
0.34314000000000006
0.34876
0.34876
0.36000000000000004
0.36000000000000004
0.35438000000000003
0.34876
0.36000000000000004
0.35438000000000003
0.35438000000000003
0.36000000000000004
0.37688000000000005
0.37126000000000003
0.36564
0.36000000000000004
0.36564
0.36564
0.35438000000000003
0.34876
0.36564
0.37688000000000005
0.36564
0.36000000000000004
0.36564
0.37126000000000003
0.36000000000000004
0.35438000000000003
0.34876
0.34876
0.35438000000000003
0.35438000000000003
0.36000000000000004
0.37688000000000005
0.36564
0.35438000000000003
0.36000000000000004
0.34876
0.34876
0.35438000000000003
0.34876
0.35438000000000003
0.36000000000000004
0.35438000000000003
0.36000000000000004
0.36000000000000004
0.35438000000000003
0.34876
0.35438000000000003
0.35438000000000003
0.35438000000000003
0.35438000000000003
0.35438000000000003
0.35438000000000003
0.34314000000000006
0.3375
0.3375
0.36000000000000004
0.36000000000000004
0.3375
0.35438000000000003
0.36564
0.37126000000000003
0.36000000000000004
0.35438000000000003
0.36000000000000004
0.36000000000000004
0.34876
0.34314000000000006
0.34314000000000006
0.35438000000000003
0.35438000000000003
0.35438000000000003
0.36000000000000004
0.34876
0.34314000000000006
0.3375
0.34876
0.35438000000000003
0.35438000000000003
0.34876
0.34314000000000006
0.35438000000000003
0.3375
0.34314000000000006
0.34314000000000006
0.3375
0.34314000000000006
0.3375
0.34314000000000006
0.34314000000000006
0.34314000000000006
0.34876
0.34876
0.34876
0.35438000000000003
0.34314000000000006
0.3375
0.34314000000000006
0.34314000000000006
0.35438000000000003
0.34876
0.3375
0.3375
0.35438000000000003
0.35438000000000003
0.34876
0.34314000000000006
0.3375
0.34314000000000006
0.36000000000000004
0.35438000000000003
0.3375
0.34876
0.34876
0.34876
0.36000000000000004
0.35438000000000003
0.34876
0.36564
0.35438000000000003
0.34314000000000006
0.3375
0.3375
0.33188
0.33188
0.34314000000000006
0.34314000000000006
0.3375
0.34314000000000006
0.34314000000000006
0.3375
0.3375
0.31500000000000006
0.3375
0.34314000000000006
0.3375
0.3375
0.3375
0.34314000000000006
0.3375
0.3375
0.34314000000000006
0.34876
0.34876
0.34876
0.3375
0.34314000000000006
0.34876
0.34876
0.34876
0.34876
0.3375
0.3375
0.3375
0.34314000000000006
0.3375
0.3375
0.34314000000000006
0.34314000000000006
0.34314000000000006
0.34314000000000006
0.3375
0.3375
0.33188
0.32626000000000005
0.32064000000000004
0.3375
0.3375
0.3375
0.34314000000000006
0.3375
0.3375
0.33188
0.34876
0.36564
0.34876
0.34314000000000006
0.3375
0.3375
0.33188
0.34314000000000006
0.34314000000000006
0.34314000000000006
0.3375
0.3375
0.3375
0.33188
0.33188
0.3375
0.3375
0.3375
0.34876
0.3375
0.32626000000000005
0.32626000000000005
0.31500000000000006
0.32626000000000005
0.34314000000000006
0.3375
0.3375
0.3375
0.34314000000000006
0.3375
0.3375
0.3375
0.3375
0.3375
0.3375
0.33188
0.33188
0.3375
0.3375
0.3375
0.32626000000000005
0.32626000000000005
0.3375
0.34314000000000006
0.3375
0.3375
0.3375
0.3375
0.3375
0.3375
0.3375
0.3375
0.3375
0.3375
0.33188
0.32064000000000004
0.32626000000000005
0.3375
0.3375
0.3375
0.3375
0.34876
0.36000000000000004
0.34314000000000006
0.3375
0.3375
0.33188
0.3375
0.3375
0.34876
0.35438000000000003
0.34314000000000006
0.34314000000000006
0.3375
0.3375
0.36000000000000004
0.34876
0.35438000000000003
0.36000000000000004
0.37126000000000003
0.3825
0.37688000000000005
0.37126000000000003
0.37688000000000005
0.38814000000000004
0.39938
0.39938
0.39938
0.39376000000000005
0.37688000000000005
0.3825
0.39376000000000005
0.37688000000000005
0.39938
0.42750000000000005
0.42750000000000005
0.42188000000000003
0.4162600000000001
0.4162600000000001
0.405
0.39938
0.39376000000000005
0.39938
0.38814000000000004
0.36564
0.36564
0.36000000000000004
0.34876
0.32626000000000005
0.31500000000000006
0.30376000000000003
0.30938000000000004
0.30376000000000003
0.30938000000000004
0.30376000000000003
0.30938000000000004
0.32064000000000004
0.31500000000000006
0.32064000000000004
0.32626000000000005
0.32064000000000004
0.31500000000000006
0.30938000000000004
0.30376000000000003
0.32064000000000004
0.32064000000000004
0.33188
0.35438000000000003
0.35438000000000003
0.34314000000000006
0.34314000000000006
0.3375
0.3375
0.3375
0.32626000000000005
0.31500000000000006
0.32064000000000004
0.3375
0.3375
0.3375
0.3375
0.34314000000000006
0.3375
0.3375
0.3375
0.3375
0.3375
0.3375
0.3375
0.34314000000000006
0.34314000000000006
0.34876
0.34876
0.34314000000000006
0.32064000000000004
0.33188
0.33188
0.32064000000000004
0.30376000000000003
0.25876000000000005
0.27
0.28126
0.27
0.28126
0.29814
0.32626000000000005
0.3375
0.37688000000000005
0.46126
0.5343800000000001
0.62438
0.7706200000000001
0.91124
1.0350000000000001
1.10812
1.1587399999999999
1.15312
1.0575
0.9225000000000001
0.79312
0.69186
0.6693600000000001
0.675
0.64126
0.6075
0.59064
0.59064
0.54564
0.405
0.27564000000000005
0.21376000000000006
0.20814000000000005
0.2025
0.17438000000000003
0.17438000000000003
0.18564000000000003
0.21376000000000006
0.23064
0.29250000000000004
0.3375
0.36000000000000004
0.34876
0.3375
0.29814
0.29250000000000004
0.28688
0.29250000000000004
0.29814
0.29250000000000004
0.28688
0.30938000000000004
0.30938000000000004
0.29814
0.28126
0.27564000000000005
0.28688
0.28688
0.30376000000000003
0.30376000000000003
0.29250000000000004
0.28688
0.30376000000000003
0.31500000000000006
0.30938000000000004
0.29250000000000004
0.28126
0.28126
0.28688
0.29250000000000004
0.29250000000000004
0.30376000000000003
0.30376000000000003
0.29814
0.28688
0.28126
0.28688
0.27564000000000005
0.28688
0.29250000000000004
0.28688
0.28126
0.28688
0.27564000000000005
0.27
0.27564000000000005
0.27564000000000005
0.28126
0.27564000000000005
0.28126
0.28688
0.29250000000000004
0.28688
0.27564000000000005
0.27564000000000005
0.27
0.25876000000000005
0.25314000000000003
0.25876000000000005
0.28688
0.29250000000000004
0.27564000000000005
0.27564000000000005
0.28126
0.27564000000000005
0.27
0.27
0.26438000000000006
0.26438000000000006
0.25314000000000003
0.25314000000000003
0.25314000000000003
0.24750000000000005
0.24188000000000004
0.24188000000000004
0.23626000000000003
0.22500000000000003
0.21938000000000002
0.23064
0.21938000000000002
0.21376000000000006
0.20814000000000005
0.21938000000000002
0.22500000000000003
0.20814000000000005
0.19126000000000004
0.19126000000000004
0.18564000000000003
0.2025
0.20814000000000005
0.19126000000000004
0.19688000000000005
0.19126000000000004
0.17438000000000003
0.16314
0.16314
0.16876000000000002
0.15750000000000003
0.15750000000000003
0.15750000000000003
0.15750000000000003
0.15750000000000003
0.14626000000000006
0.14626000000000006
0.15188000000000001
0.16314
0.16314
0.15188000000000001
0.15750000000000003
0.16314
0.15188000000000001
0.16876000000000002
0.17438000000000003
0.18564000000000003
0.19126000000000004
0.19688000000000005
0.20814000000000005
0.21376000000000006
0.23064
0.24188000000000004
0.25876000000000005
0.28126
0.29250000000000004
0.30376000000000003
0.32064000000000004
0.3375
0.34314000000000006
0.35438000000000003
0.3825
0.39376000000000005
0.4162600000000001
0.42188000000000003
0.4162600000000001
0.41064
0.405
0.42188000000000003
0.42750000000000005
0.42750000000000005
0.4162600000000001
0.41064
0.405
0.405
0.405
0.39376000000000005
0.37126000000000003
0.37688000000000005
0.38814000000000004
0.38814000000000004
0.3825
0.37126000000000003
0.37126000000000003
0.37126000000000003
0.36564
0.36000000000000004
0.36000000000000004
0.36000000000000004
0.35438000000000003
0.34876
0.34876
0.34876
0.35438000000000003
0.34876
0.3375
0.3375
0.34876
0.34876
0.35438000000000003
0.3375
0.34314000000000006
0.34314000000000006
0.34314000000000006
0.3375
0.3375
0.34876
0.3375
0.33188
0.3375
0.3375
0.33188
0.3375
0.34876
0.34314000000000006
0.3375
0.3375
0.3375
0.34876
0.34876
0.34314000000000006
0.3375
0.3375
0.3375
0.34314000000000006
0.3375
0.3375
0.3375
0.3375
0.34314000000000006
0.33188
0.33188
0.32626000000000005
0.33188
0.34314000000000006
0.3375
0.3375
0.3375
0.3375
0.3375
0.34314000000000006
0.3375
0.34314000000000006
0.34876
0.3375
0.3375
0.3375
0.3375
0.3375
0.34876
0.34314000000000006
0.3375
0.33188
0.33188
0.32626000000000005
0.32626000000000005
0.33188
0.33188
0.3375
0.33188
0.32626000000000005
0.33188
0.3375
0.34314000000000006
0.34314000000000006
0.3375
0.33188
0.3375
0.3375
0.3375
0.3375
0.3375
0.33188
0.32626000000000005
0.32626000000000005
0.33188
0.33188
0.3375
0.3375
0.32626000000000005
0.3375
0.3375
0.3375
0.3375
0.34314000000000006
0.3375
0.33188
0.3375
0.34314000000000006
0.3375
0.3375
0.34314000000000006
0.32626000000000005
0.3375
0.3375
0.3375
0.33188
0.32626000000000005
0.3375
0.31500000000000006
0.31500000000000006
0.32064000000000004
0.3375
0.34876
0.32626000000000005
0.33188
0.33188
0.3375
0.32064000000000004
0.32064000000000004
0.32064000000000004
0.33188
0.33188
0.32626000000000005
0.32626000000000005
0.33188
0.32626000000000005
0.33188
0.33188
0.32064000000000004
0.32626000000000005
0.32626000000000005
0.32626000000000005
0.3375
0.33188
0.3375
0.3375
0.31500000000000006
0.30938000000000004
0.31500000000000006
0.32626000000000005
0.32626000000000005
0.32626000000000005
0.31500000000000006
0.31500000000000006
0.32626000000000005
0.33188
0.32626000000000005
0.33188
0.32626000000000005
0.33188
0.33188
0.32064000000000004
0.32064000000000004
0.33188
0.3375
0.33188
0.33188
0.32626000000000005
0.32064000000000004
0.32626000000000005
0.32626000000000005
0.32626000000000005
0.32626000000000005
0.33188
0.3375
0.3375
0.33188
0.32626000000000005
0.32064000000000004
0.31500000000000006
0.31500000000000006
0.32064000000000004
0.31500000000000006
0.32626000000000005
0.3375
0.32626000000000005
0.32626000000000005
0.32626000000000005
0.31500000000000006
0.33188
0.32064000000000004
0.30938000000000004
0.31500000000000006
0.30938000000000004
0.32626000000000005
0.32064000000000004
0.32064000000000004
0.32626000000000005
0.32064000000000004
0.32626000000000005
0.32064000000000004
0.32064000000000004
0.32064000000000004
0.32064000000000004
0.32626000000000005
0.32626000000000005
0.32064000000000004
0.32064000000000004
0.32064000000000004
0.3375
0.33188
0.33188
0.32064000000000004
0.31500000000000006
0.33188
0.33188
0.33188
0.33188
0.3375
0.3375
0.31500000000000006
0.32064000000000004
0.32626000000000005
0.32064000000000004
0.3375
0.3375
0.33188
0.32626000000000005
0.31500000000000006
0.31500000000000006
0.32064000000000004
0.32064000000000004
0.31500000000000006
0.31500000000000006
0.32064000000000004
0.31500000000000006
0.32064000000000004
0.32064000000000004
0.32064000000000004
0.32064000000000004
0.30938000000000004
0.30938000000000004
0.31500000000000006
0.32626000000000005
0.33188
0.32064000000000004
0.30938000000000004
0.30376000000000003
0.30938000000000004
0.31500000000000006
0.30376000000000003
0.30938000000000004
0.33188
0.3375
0.33188
0.32626000000000005
0.34314000000000006
0.3375
0.3375
0.3375
0.34314000000000006
0.34314000000000006
0.34314000000000006
0.35438000000000003
0.36000000000000004
0.34876
0.36000000000000004
0.36000000000000004
0.36000000000000004
0.34876
0.34314000000000006
0.34876
0.35438000000000003
0.34876
0.34876
0.34314000000000006
0.33188
0.31500000000000006
0.32626000000000005
0.34876
0.34876
0.3375
0.3375
0.3375
0.31500000000000006
0.30938000000000004
0.30376000000000003
0.30938000000000004
0.29250000000000004
0.28688
0.29250000000000004
0.29814
0.29814
0.29250000000000004
0.28126
0.26438000000000006
0.26438000000000006
0.25314000000000003
0.25314000000000003
0.24750000000000005
0.25314000000000003
0.26438000000000006
0.27564000000000005
0.28688
0.29250000000000004
0.29814
0.30376000000000003
0.30938000000000004
0.30376000000000003
0.31500000000000006
0.32064000000000004
0.31500000000000006
0.33188
0.3375
0.3375
0.3375
0.31500000000000006
0.30376000000000003
0.33188
0.33188
0.32626000000000005
0.33188
0.32064000000000004
0.33188
0.3375
0.3375
0.3375
0.31500000000000006
0.32626000000000005
0.33188
0.32064000000000004
0.32626000000000005
0.32064000000000004
0.33188
0.3375
0.32064000000000004
0.32626000000000005
0.30938000000000004
0.29250000000000004
0.25314000000000003
0.24750000000000005
0.26438000000000006
0.25876000000000005
0.25876000000000005
0.24188000000000004
0.26438000000000006
0.30376000000000003
0.34314000000000006
0.4162600000000001
0.47250000000000003
0.5681400000000001
0.72
0.86062
1.0012400000000001
1.08562
1.13624
1.17
1.10812
0.97874
0.8325
0.72562
0.7031200000000001
0.6862400000000001
0.65812
0.63
0.62438
0.64126
0.5681400000000001
0.43876000000000004
0.30938000000000004
0.22500000000000003
0.20814000000000005
0.18564000000000003
0.15750000000000003
0.15750000000000003
0.18564000000000003
0.21376000000000006
0.21938000000000002
0.26438000000000006
0.31500000000000006
0.34314000000000006
0.3375
0.32626000000000005
0.32064000000000004
0.30938000000000004
0.29814
0.29814
0.29250000000000004
0.30376000000000003
0.30376000000000003
0.30376000000000003
0.30376000000000003
0.30376000000000003
0.30376000000000003
0.29250000000000004
0.28126
0.30376000000000003
0.32626000000000005
0.32064000000000004
0.30376000000000003
0.32626000000000005
0.3375
0.32626000000000005
0.30938000000000004
0.28688
0.29814
0.30938000000000004
0.31500000000000006
0.31500000000000006
0.30938000000000004
0.32064000000000004
0.32626000000000005
0.31500000000000006
0.32064000000000004
0.30938000000000004
0.30376000000000003
0.29814
0.29250000000000004
0.29814
0.29814
0.30376000000000003
0.30938000000000004
0.30376000000000003
0.30938000000000004
0.29814
0.29250000000000004
0.30376000000000003
0.29814
0.28688
0.29250000000000004
0.29250000000000004
0.29814
0.29814
0.29250000000000004
0.28126
0.28688
0.29250000000000004
0.29250000000000004
0.29250000000000004
0.27
0.28688
0.28126
0.27
0.27564000000000005
0.27564000000000005
0.27
0.26438000000000006
0.25876000000000005
0.25314000000000003
0.25314000000000003
0.25314000000000003
0.25876000000000005
0.25314000000000003
0.24750000000000005
0.24188000000000004
0.24188000000000004
0.24188000000000004
0.25314000000000003
0.25314000000000003
0.24188000000000004
0.24750000000000005
0.23626000000000003
0.19126000000000004
0.20814000000000005
0.23064
0.21938000000000002
0.21938000000000002
0.22500000000000003
0.20814000000000005
0.19688000000000005
0.20814000000000005
0.20814000000000005
0.19126000000000004
0.19126000000000004
0.18000000000000005
0.16876000000000002
0.16876000000000002
0.16314
0.16876000000000002
0.15750000000000003
0.15188000000000001
0.15188000000000001
0.16314
0.16876000000000002
0.14626000000000006
0.15188000000000001
0.15750000000000003
0.15750000000000003
0.16314
0.16876000000000002
0.18564000000000003
0.18564000000000003
0.18564000000000003
0.19688000000000005
0.21376000000000006
0.21938000000000002
0.21938000000000002
0.24750000000000005
0.27564000000000005
0.28126
0.29814
0.32626000000000005
0.34314000000000006
0.34876
0.35438000000000003
0.37126000000000003
0.3825
0.39376000000000005
0.42188000000000003
0.4162600000000001
0.42750000000000005
0.43876000000000004
0.44438
0.43876000000000004
0.43876000000000004
0.42750000000000005
0.42750000000000005
0.44438
0.43876000000000004
0.43314
0.42750000000000005
0.42750000000000005
0.42188000000000003
0.42188000000000003
0.41064
0.405
0.39376000000000005
0.39376000000000005
0.39938
0.39376000000000005
0.38814000000000004
0.38814000000000004
0.39938
0.39376000000000005
0.37688000000000005
0.38814000000000004
0.39376000000000005
0.38814000000000004
0.3825
0.3825
0.39938
0.39376000000000005
0.38814000000000004
0.37126000000000003
0.36564
0.37688000000000005
0.37126000000000003
0.37688000000000005
0.36564
0.36564
0.37688000000000005
0.36564
0.37126000000000003
0.37126000000000003
0.37126000000000003
0.37688000000000005
0.37688000000000005
0.3825
0.36564
0.37688000000000005
0.37688000000000005
0.37126000000000003
0.37688000000000005
0.37688000000000005
0.36564
0.37126000000000003
0.35438000000000003
0.37126000000000003
0.37688000000000005
0.37126000000000003
0.36564
0.36000000000000004
0.36000000000000004
0.36000000000000004
0.36000000000000004
0.37126000000000003
0.36000000000000004
0.36564
0.37688000000000005
0.37126000000000003
0.37126000000000003
0.36564
0.3825
0.38814000000000004
0.37688000000000005
0.38814000000000004
0.36000000000000004
0.36000000000000004
0.36564
0.37126000000000003
0.3825
0.34876
0.34876
0.36000000000000004
0.36564
0.36564
0.36564
0.37126000000000003
0.36564
0.37688000000000005
0.37126000000000003
0.35438000000000003
0.35438000000000003
0.36564
0.36000000000000004
0.35438000000000003
0.34876
0.36564
0.3825
0.36564
0.36564
0.36564
0.35438000000000003
0.34876
0.34314000000000006
0.35438000000000003
0.36564
0.36564
0.37126000000000003
0.36564
0.36564
0.36564
0.35438000000000003
0.34876
0.34876
0.34876
0.35438000000000003
0.36564
0.36564
0.35438000000000003
0.36564
0.36000000000000004
0.36000000000000004
0.36000000000000004
0.34876
0.34876
0.35438000000000003
0.35438000000000003
0.36000000000000004
0.35438000000000003
0.36000000000000004
0.36564
0.36000000000000004
0.35438000000000003
0.35438000000000003
0.35438000000000003
0.34314000000000006
0.34876
0.35438000000000003
0.34314000000000006
0.34876
0.3375
0.34314000000000006
0.3375
0.3375
0.34876
0.35438000000000003
0.34876
0.34314000000000006
0.3375
0.34876
0.3375
0.33188
0.3375
0.35438000000000003
0.34314000000000006
0.3375
0.34314000000000006
0.34876
0.34314000000000006
0.34314000000000006
0.3375
0.3375
0.34314000000000006
0.33188
0.33188
0.33188
0.3375
0.3375
0.3375
0.34314000000000006
0.3375
0.3375
0.33188
0.3375
0.33188
0.32626000000000005
0.3375
0.34314000000000006
0.3375
0.3375
0.3375
0.34314000000000006
0.3375
0.32626000000000005
0.3375
0.34876
0.35438000000000003
0.34876
0.3375
0.3375
0.3375
0.3375
0.34314000000000006
0.3375
0.33188
0.32064000000000004
0.3375
0.34876
0.34314000000000006
0.34876
0.3375
0.34314000000000006
0.3375
0.33188
0.3375
0.33188
0.3375
0.33188
0.32064000000000004
0.32626000000000005
0.3375
0.34876
0.3375
0.32626000000000005
0.3375
0.34314000000000006
0.3375
0.33188
0.32064000000000004
0.33188
0.33188
0.32626000000000005
0.32626000000000005
0.32626000000000005
0.32626000000000005
0.32064000000000004
0.3375
0.34314000000000006
0.32064000000000004
0.32064000000000004
0.32626000000000005
0.32064000000000004
0.33188
0.3375
0.33188
0.32626000000000005
0.33188
0.32626000000000005
0.33188
0.32626000000000005
0.31500000000000006
0.32626000000000005
0.32626000000000005
0.31500000000000006
0.31500000000000006
0.31500000000000006
0.32064000000000004
0.3375
0.3375
0.33188
0.32064000000000004
0.3375
0.34876
0.35438000000000003
0.34314000000000006
0.34314000000000006
0.34876
0.37126000000000003
0.36000000000000004
0.37126000000000003
0.37688000000000005
0.36564
0.36564
0.36564
0.36000000000000004
0.34876
0.36564
0.3825
0.3825
0.405
0.405
0.405
0.39938
0.38814000000000004
0.38814000000000004
0.37688000000000005
0.37688000000000005
0.3825
0.38814000000000004
0.39376000000000005
0.3825
0.36000000000000004
0.34876
0.33188
0.30376000000000003
0.28688
0.28126
0.28126
0.28688
0.29250000000000004
0.28688
0.29250000000000004
0.30376000000000003
0.30376000000000003
0.30376000000000003
0.29250000000000004
0.28126
0.27564000000000005
0.28688
0.30376000000000003
0.31500000000000006
0.30938000000000004
0.30376000000000003
0.30938000000000004
0.30376000000000003
0.31500000000000006
0.31500000000000006
0.31500000000000006
0.29250000000000004
0.30376000000000003
0.28126
0.25876000000000005
0.27564000000000005
0.29814
0.29814
0.29814
0.29250000000000004
0.29814
0.30376000000000003
0.29814
0.29250000000000004
0.28688
0.29250000000000004
0.28688
0.29814
0.30376000000000003
0.29814
0.29814
0.29814
0.29250000000000004
0.27564000000000005
0.24750000000000005
0.22500000000000003
0.2025
0.2025
0.19688000000000005
0.20814000000000005
0.19688000000000005
0.19126000000000004
0.20814000000000005
0.24188000000000004
0.30376000000000003
0.35438000000000003
0.41064
0.5175000000000001
0.6525000000000001
0.8043600000000001
0.96186
1.0575
1.13624
1.15312
1.0575
0.91686
0.77624
0.6862400000000001
0.68062
0.68062
0.64126
0.6075
0.6075
0.62438
0.54
0.39376000000000005
0.26438000000000006
0.2025
0.16314
0.135
0.135
0.135
0.15188000000000001
0.18000000000000005
0.2025
0.24188000000000004
0.28126
0.29814
0.28688
0.28126
0.27564000000000005
0.25876000000000005
0.25314000000000003
0.25314000000000003
0.25314000000000003
0.25314000000000003
0.25314000000000003
0.26438000000000006
0.26438000000000006
0.25314000000000003
0.26438000000000006
0.24750000000000005
0.25314000000000003
0.25876000000000005
0.26438000000000006
0.28126
0.27564000000000005
0.27564000000000005
0.27
0.26438000000000006
0.26438000000000006
0.25876000000000005
0.26438000000000006
0.25876000000000005
0.26438000000000006
0.28688
0.28126
0.28126
0.28688
0.29814
0.28126
0.25314000000000003
0.23064
0.25876000000000005
0.28126
0.28688
0.27564000000000005
0.28126
0.26438000000000006
0.26438000000000006
0.26438000000000006
0.25314000000000003
0.26438000000000006
0.26438000000000006
0.26438000000000006
0.27
0.27564000000000005
0.27564000000000005
0.26438000000000006
0.27
0.27564000000000005
0.27
0.27564000000000005
0.27564000000000005
0.27564000000000005
0.25876000000000005
0.25876000000000005
0.25876000000000005
0.23626000000000003
0.25314000000000003
0.26438000000000006
0.25876000000000005
0.25876000000000005
0.23626000000000003
0.24750000000000005
0.25314000000000003
0.27
0.25876000000000005
0.24188000000000004
0.23626000000000003
0.23626000000000003
0.23064
0.23064
0.23064
0.23626000000000003
0.23626000000000003
0.23064
0.22500000000000003
0.21938000000000002
0.21938000000000002
0.21376000000000006
0.20814000000000005
0.19688000000000005
0.19126000000000004
0.19688000000000005
0.19688000000000005
0.19688000000000005
0.18564000000000003
0.18000000000000005
0.19126000000000004
0.18564000000000003
0.15750000000000003
0.15750000000000003
0.16876000000000002
0.16876000000000002
0.17438000000000003
0.17438000000000003
0.16876000000000002
0.15750000000000003
0.14064
0.14064
0.15750000000000003
0.15188000000000001
0.15188000000000001
0.16314
0.18000000000000005
0.16876000000000002
0.16314
0.17438000000000003
0.18564000000000003
0.18564000000000003
0.20814000000000005
0.23064
0.21938000000000002
0.23064
0.27
0.29250000000000004
0.31500000000000006
0.33188
0.3375
0.35438000000000003
0.36564
0.37126000000000003
0.38814000000000004
0.41064
0.4162600000000001
0.42188000000000003
0.43876000000000004
0.45000000000000007
0.44438
0.44438
0.45564000000000004
0.44438
0.44438
0.44438
0.44438
0.45000000000000007
0.45000000000000007
0.43876000000000004
0.43314
0.43314
0.43314
0.4162600000000001
0.41064
0.4162600000000001
0.42188000000000003
0.4162600000000001
0.4162600000000001
0.41064
0.42188000000000003
0.41064
0.405
0.39376000000000005
0.39376000000000005
0.39938
0.38814000000000004
0.4162600000000001
0.43314
0.43314
0.405
0.405
0.41064
0.38814000000000004
0.38814000000000004
0.41064
0.41064
0.41064
0.41064
0.405
0.39938
0.39938
0.39938
0.39938
0.405
0.39376000000000005
0.39938
0.405
0.405
0.41064
0.41064
0.41064
0.39938
0.39938
0.405
0.4162600000000001
0.41064
0.39938
0.405
0.41064
0.41064
0.405
0.41064
0.41064
0.42188000000000003
0.42188000000000003
0.41064
0.405
0.41064
0.4162600000000001
0.39938
0.39376000000000005
0.42188000000000003
0.41064
0.39938
0.41064
0.4162600000000001
0.405
0.405
0.405
0.39938
0.39938
0.405
0.39376000000000005
0.38814000000000004
0.39938
0.39938
0.405
0.405
0.39938
0.39938
0.405
0.4162600000000001
0.4162600000000001
0.405
0.405
0.405
0.405
0.405
0.41064
0.405
0.405
0.39938
0.38814000000000004
0.38814000000000004
0.39938
0.39938
0.3825
0.39376000000000005
0.41064
0.41064
0.405
0.405
0.41064
0.4162600000000001
0.41064
0.405
0.405
0.39938
0.39376000000000005
0.39938
0.39938
0.39376000000000005
0.39938
0.405
0.39376000000000005
0.39938
0.39376000000000005
0.38814000000000004
0.39376000000000005
0.39376000000000005
0.39938
0.39938
0.39376000000000005
0.39376000000000005
0.39938
0.39938
0.39938
0.3825
0.39376000000000005
0.41064
0.4162600000000001
0.39938
0.38814000000000004
0.39376000000000005
0.39938
0.405
0.405
0.39376000000000005
0.39376000000000005
0.39938
0.39938
0.39376000000000005
0.39376000000000005
0.39938
0.39376000000000005
0.39376000000000005
0.41064
0.39938
0.39376000000000005
0.39376000000000005
0.39376000000000005
0.37688000000000005
0.37688000000000005
0.39376000000000005
0.405
0.39938
0.38814000000000004
0.39376000000000005
0.39938
0.405
0.405
0.405
0.39938
0.39938
0.39938
0.38814000000000004
0.39376000000000005
0.405
0.39376000000000005
0.39376000000000005
0.38814000000000004
0.38814000000000004
0.39938
0.39376000000000005
0.39938
0.39938
0.38814000000000004
0.37688000000000005
0.3825
0.39376000000000005
0.38814000000000004
0.38814000000000004
0.37688000000000005
0.3825
0.3825
0.38814000000000004
0.38814000000000004
0.38814000000000004
0.3825
0.37688000000000005
0.3825
0.3825
0.3825
0.3825
0.37688000000000005
0.37126000000000003
0.38814000000000004
0.3825
0.3825
0.37126000000000003
0.3825
0.3825
0.37688000000000005
0.37688000000000005
0.37126000000000003
0.36564
0.37126000000000003
0.37126000000000003
0.37126000000000003
0.36564
0.36000000000000004
0.36564
0.36000000000000004
0.3825
0.37688000000000005
0.36564
0.37688000000000005
0.39376000000000005
0.38814000000000004
0.39376000000000005
0.41064
0.42188000000000003
0.42188000000000003
0.42188000000000003
0.42750000000000005
0.42750000000000005
0.42188000000000003
0.42750000000000005
0.42188000000000003
0.42750000000000005
0.43876000000000004
0.45000000000000007
0.4668800000000001
0.47250000000000003
0.4668800000000001
0.46126
0.46126
0.45564000000000004
0.45000000000000007
0.45000000000000007
0.45564000000000004
0.45000000000000007
0.43876000000000004
0.43314
0.42750000000000005
0.405
0.37688000000000005
0.36564
0.34876
0.3375
0.33188
0.32626000000000005
0.33188
0.3375
0.33188
0.3375
0.33188
0.33188
0.3375
0.33188
0.3375
0.33188
0.33188
0.3375
0.3375
0.34314000000000006
0.34314000000000006
0.3375
0.3375
0.3375
0.3375
0.32064000000000004
0.29814
0.30938000000000004
0.32064000000000004
0.32626000000000005
0.32626000000000005
0.32064000000000004
0.3375
0.34876
0.3375
0.32626000000000005
0.30376000000000003
0.28688
0.29814
0.32064000000000004
0.33188
0.32064000000000004
0.32064000000000004
0.31500000000000006
0.31500000000000006
0.30938000000000004
0.30376000000000003
0.29814
0.27
0.23626000000000003
0.20814000000000005
0.22500000000000003
0.23064
0.21376000000000006
0.2025
0.19688000000000005
0.20814000000000005
0.25314000000000003
0.30938000000000004
0.37126000000000003
0.42750000000000005
0.54
0.6975
0.84936
0.99
1.07436
1.13624
1.13624
1.02374
0.88312
0.78186
0.7031200000000001
0.7031200000000001
0.68062
0.64126
0.61314
0.6075
0.6075
0.48376
0.34314000000000006
0.24188000000000004
0.17438000000000003
0.17438000000000003
0.15188000000000001
0.12938000000000005
0.12938000000000005
0.135
0.17438000000000003
0.18564000000000003
0.23064
0.28688
0.27564000000000005
0.28126
0.26438000000000006
0.23064
0.23064
0.21376000000000006
0.22500000000000003
0.23626000000000003
0.24188000000000004
0.25314000000000003
0.24750000000000005
0.23626000000000003
0.24188000000000004
0.23064
0.23064
0.22500000000000003
0.22500000000000003
0.22500000000000003
0.23626000000000003
0.25314000000000003
0.24750000000000005
0.24188000000000004
0.23626000000000003
0.23064
0.23064
0.21938000000000002
0.23064
0.24188000000000004
0.23626000000000003
0.24188000000000004
0.24750000000000005
0.25314000000000003
0.25314000000000003
0.24188000000000004
0.23626000000000003
0.23064
0.24188000000000004
0.23626000000000003
0.23064
0.24750000000000005
0.25314000000000003
0.24188000000000004
0.23064
0.23064
0.23064
0.23064
0.22500000000000003
0.22500000000000003
0.23064
0.23064
0.23064
0.23064
0.23626000000000003
0.23626000000000003
0.22500000000000003
0.2025
0.20814000000000005
0.23064
0.21376000000000006
0.21938000000000002
0.21938000000000002
0.21938000000000002
0.22500000000000003
0.21376000000000006
0.21376000000000006
0.20814000000000005
0.2025
0.20814000000000005
0.2025
0.19688000000000005
0.19688000000000005
0.18564000000000003
0.18000000000000005
0.18000000000000005
0.19688000000000005
0.19126000000000004
0.17438000000000003
0.16314
0.15188000000000001
0.16876000000000002
0.19126000000000004
0.17438000000000003
0.16876000000000002
0.16876000000000002
0.15750000000000003
0.14064
0.135
0.12938000000000005
0.135
0.14064
0.135
0.12375999999999998
0.12375999999999998
0.10688000000000009
0.11814000000000002
0.11250000000000004
0.10126000000000002
0.10126000000000002
0.10688000000000009
0.09564000000000006
0.09000000000000008
0.10126000000000002
0.10688000000000009
0.10126000000000002
0.09564000000000006
0.09000000000000008
0.09000000000000008
0.11814000000000002
0.10688000000000009
0.09564000000000006
0.10688000000000009
0.11814000000000002
0.135
0.14626000000000006
0.135
0.135
0.15750000000000003
0.19126000000000004
0.19688000000000005
0.2025
0.21938000000000002
0.24188000000000004
0.28688
0.29814
0.30376000000000003
0.30938000000000004
0.32064000000000004
0.3375
0.35438000000000003
0.34876
0.36000000000000004
0.36000000000000004
0.36564
0.34876
0.34314000000000006
0.35438000000000003
0.35438000000000003
0.36000000000000004
0.35438000000000003
0.36000000000000004
0.34876
0.3375
0.3375
0.3375
0.3375
0.3375
0.3375
0.33188
0.33188
0.32626000000000005
0.30938000000000004
0.31500000000000006
0.33188
0.33188
0.33188
0.32626000000000005
0.32626000000000005
0.33188
0.32626000000000005
0.30938000000000004
0.31500000000000006
0.32064000000000004
0.32064000000000004
0.31500000000000006
0.32064000000000004
0.32064000000000004
0.32064000000000004
0.32626000000000005
0.32064000000000004
0.30376000000000003
0.32064000000000004
0.3375
0.32626000000000005
0.32626000000000005
0.32626000000000005
0.32064000000000004
0.31500000000000006
0.31500000000000006
0.32626000000000005
0.33188
0.32064000000000004
0.32064000000000004
0.31500000000000006
0.32064000000000004
0.31500000000000006
0.30376000000000003
0.30938000000000004
0.32626000000000005
0.33188
0.32064000000000004
0.31500000000000006
0.30938000000000004
0.30938000000000004
0.30938000000000004
0.30376000000000003
0.29814
0.30938000000000004
0.30376000000000003
0.30376000000000003
0.30938000000000004
0.29250000000000004
0.29814
0.30376000000000003
0.29814
0.29814
0.29814
0.30376000000000003
0.29814
0.29250000000000004
0.30938000000000004
0.30938000000000004
0.30938000000000004
0.30376000000000003
0.30376000000000003
0.29814
0.30376000000000003
0.30938000000000004
0.30938000000000004
0.31500000000000006
0.30938000000000004
0.31500000000000006
0.30938000000000004
0.30376000000000003
0.32064000000000004
0.30938000000000004
0.29814
0.29814
0.30376000000000003
0.31500000000000006
0.32064000000000004
0.31500000000000006
0.30938000000000004
0.30938000000000004
0.30938000000000004
0.30938000000000004
0.29814
0.31500000000000006
0.32626000000000005
0.31500000000000006
0.32064000000000004
0.31500000000000006
0.31500000000000006
0.31500000000000006
0.30938000000000004
0.30938000000000004
0.30938000000000004
0.32064000000000004
0.32064000000000004
0.31500000000000006
0.30938000000000004
0.29814
0.32626000000000005
0.32064000000000004
0.30938000000000004
0.30938000000000004
0.30938000000000004
0.30938000000000004
0.31500000000000006
0.31500000000000006
0.32064000000000004
0.32064000000000004
0.32626000000000005
0.31500000000000006
0.30938000000000004
0.32064000000000004
0.31500000000000006
0.32064000000000004
0.32064000000000004
0.32626000000000005
0.31500000000000006
0.31500000000000006
0.33188
0.32626000000000005
0.32626000000000005
0.33188
0.3375
0.3375
0.3375
0.3375
0.32626000000000005
0.33188
0.3375
0.32626000000000005
0.32626000000000005
0.32626000000000005
0.32064000000000004
0.3375
0.3375
0.32626000000000005
0.32064000000000004
0.3375
0.3375
0.32626000000000005
0.32626000000000005
0.3375
0.32626000000000005
0.32626000000000005
0.3375
0.34314000000000006
0.34876
0.3375
0.33188
0.33188
0.3375
0.33188
0.3375
0.3375
0.33188
0.3375
0.3375
0.3375
0.3375
0.32626000000000005
0.3375
0.3375
0.32626000000000005
0.34314000000000006
0.34876
0.3375
0.3375
0.32626000000000005
0.33188
0.33188
0.32626000000000005
0.32064000000000004
0.33188
0.33188
0.32626000000000005
0.32626000000000005
0.3375
0.34876
0.3375
0.33188
0.3375
0.3375
0.32626000000000005
0.33188
0.3375
0.3375
0.3375
0.33188
0.32626000000000005
0.33188
0.3375
0.34314000000000006
0.34314000000000006
0.34876
0.34876
0.34314000000000006
0.3375
0.32626000000000005
0.3375
0.3375
0.3375
0.33188
0.3375
0.3375
0.3375
0.3375
0.33188
0.3375
0.3375
0.3375
0.34314000000000006
0.3375
0.3375
0.34314000000000006
0.34876
0.35438000000000003
0.35438000000000003
0.35438000000000003
0.34876
0.3375
0.3375
0.35438000000000003
0.37688000000000005
0.37688000000000005
0.39938
0.4162600000000001
0.405
0.39938
0.405
0.4162600000000001
0.41064
0.405
0.41064
0.4162600000000001
0.4162600000000001
0.4162600000000001
0.42750000000000005
0.43876000000000004
0.47250000000000003
0.47814
0.47250000000000003
0.45000000000000007
0.43314
0.43314
0.43876000000000004
0.44438
0.42750000000000005
0.43314
0.42750000000000005
0.405
0.39376000000000005
0.37688000000000005
0.37126000000000003
0.35438000000000003
0.34314000000000006
0.33188
0.31500000000000006
0.3375
0.33188
0.32064000000000004
0.3375
0.34314000000000006
0.3375
0.3375
0.3375
0.3375
0.32064000000000004
0.32064000000000004
0.33188
0.3375
0.3375
0.34314000000000006
0.3375
0.34314000000000006
0.34314000000000006
0.3375
0.33188
0.3375
0.31500000000000006
0.31500000000000006
0.32626000000000005
0.32626000000000005
0.33188
0.33188
0.3375
0.3375
0.3375
0.3375
0.32626000000000005
0.33188
0.3375
0.3375
0.33188
0.33188
0.3375
0.3375
0.33188
0.31500000000000006
0.30376000000000003
0.28688
0.25876000000000005
0.23626000000000003
0.24188000000000004
0.24750000000000005
0.23626000000000003
0.21376000000000006
0.2025
0.23626000000000003
0.25876000000000005
0.29250000000000004
0.34876
0.405
0.5175000000000001
0.6693600000000001
0.82124
0.97312
1.06874
1.13624
1.15312
1.07436
0.95062
0.8043600000000001
0.73124
0.72562
0.72
0.6693600000000001
0.62438
0.61314
0.62438
0.55688
0.4162600000000001
0.29814
0.23626000000000003
0.21376000000000006
0.18000000000000005
0.15750000000000003
0.15188000000000001
0.14626000000000006
0.17438000000000003
0.2025
0.24750000000000005
0.29250000000000004
0.32064000000000004
0.31500000000000006
0.29814
0.28126
0.27564000000000005
0.25876000000000005
0.24750000000000005
0.24750000000000005
0.25314000000000003
0.25876000000000005
0.27564000000000005
0.27
0.27564000000000005
0.26438000000000006
0.25876000000000005
0.25314000000000003
0.25876000000000005
0.27564000000000005
0.26438000000000006
0.26438000000000006
0.27
0.27564000000000005
0.27564000000000005
0.26438000000000006
0.25314000000000003
0.24188000000000004
0.24188000000000004
0.25314000000000003
0.26438000000000006
0.27564000000000005
0.28126
0.27564000000000005
0.26438000000000006
0.27
0.27
0.26438000000000006
0.26438000000000006
0.27
0.26438000000000006
0.25876000000000005
0.25876000000000005
0.26438000000000006
0.27
0.27
0.27564000000000005
0.26438000000000006
0.26438000000000006
0.25876000000000005
0.25314000000000003
0.26438000000000006
0.27564000000000005
0.27564000000000005
0.27
0.27
0.25314000000000003
0.24750000000000005
0.24750000000000005
0.25314000000000003
0.25314000000000003
0.25314000000000003
0.25314000000000003
0.24750000000000005
0.23064
0.23626000000000003
0.24188000000000004
0.24750000000000005
0.23626000000000003
0.23626000000000003
0.23626000000000003
0.23064
0.22500000000000003
0.22500000000000003
0.21938000000000002
0.21938000000000002
0.22500000000000003
0.21938000000000002
0.21938000000000002
0.20814000000000005
0.2025
0.2025
0.19126000000000004
0.19688000000000005
0.18564000000000003
0.16314
0.17438000000000003
0.18000000000000005
0.16314
0.15750000000000003
0.15750000000000003
0.15188000000000001
0.14626000000000006
0.14064
0.15188000000000001
0.14064
0.14064
0.14064
0.12938000000000005
0.135
0.12375999999999998
0.10126000000000002
0.10688000000000009
0.10688000000000009
0.11250000000000004
0.11250000000000004
0.11250000000000004
0.11814000000000002
0.11250000000000004
0.12375999999999998
0.12938000000000005
0.12375999999999998
0.11814000000000002
0.12938000000000005
0.14626000000000006
0.15188000000000001
0.14626000000000006
0.14626000000000006
0.15750000000000003
0.2025
0.21938000000000002
0.22500000000000003
0.22500000000000003
0.25876000000000005
0.29814
0.30376000000000003
0.32064000000000004
0.3375
0.36000000000000004
0.36564
0.3825
0.39938
0.39938
0.3825
0.38814000000000004
0.39938
0.39938
0.39376000000000005
0.38814000000000004
0.38814000000000004
0.3825
0.38814000000000004
0.37688000000000005
0.37126000000000003
0.38814000000000004
0.3825
0.37126000000000003
0.37126000000000003
0.36564
0.36564
0.36000000000000004
0.36000000000000004
0.3375
0.3375
0.3375
0.34314000000000006
0.34876
0.35438000000000003
0.34314000000000006
0.34314000000000006
0.34876
0.36000000000000004
0.35438000000000003
0.34314000000000006
0.34314000000000006
0.34876
0.34876
0.3375
0.34876
0.35438000000000003
0.34314000000000006
0.3375
0.34314000000000006
0.3375
0.34314000000000006
0.34314000000000006
0.34314000000000006
0.34314000000000006
0.34314000000000006
0.34314000000000006
0.34314000000000006
0.3375
0.31500000000000006
0.31500000000000006
0.32626000000000005
0.32626000000000005
0.3375
0.34314000000000006
0.34314000000000006
0.34876
0.35438000000000003
0.3375
0.33188
0.32626000000000005
0.3375
0.33188
0.32626000000000005
0.33188
0.33188
0.33188
0.32626000000000005
0.32626000000000005
0.3375
0.3375
0.33188
0.32626000000000005
0.33188
0.3375
0.3375
0.3375
0.33188
0.3375
0.3375
0.3375
0.3375
0.3375
0.3375
0.3375
0.3375
0.32064000000000004
0.33188
0.33188
0.3375
0.35438000000000003
0.34876
0.34876
0.34314000000000006
0.3375
0.34876
0.34314000000000006
0.3375
0.34314000000000006
0.3375
0.32626000000000005
0.3375
0.3375
0.34314000000000006
0.3375
0.3375
0.34314000000000006
0.34314000000000006
0.36000000000000004
0.34314000000000006
0.33188
0.3375
0.3375
0.3375
0.3375
0.33188
0.33188
0.3375
0.3375
0.32064000000000004
0.30938000000000004
0.32626000000000005
0.34314000000000006
0.33188
0.32064000000000004
0.33188
0.3375
0.34314000000000006
0.3375
0.3375
0.3375
0.3375
0.3375
0.3375
0.3375
0.33188
0.33188
0.3375
0.3375
0.3375
0.3375
0.3375
0.33188
0.3375
0.3375
0.33188
0.3375
0.33188
0.32626000000000005
0.32626000000000005
0.33188
0.3375
0.33188
0.3375
0.3375
0.3375
0.33188
0.33188
0.33188
0.33188
0.32064000000000004
0.31500000000000006
0.32064000000000004
0.33188
0.32064000000000004
0.30376000000000003
0.31500000000000006
0.31500000000000006
0.31500000000000006
0.32626000000000005
0.32626000000000005
0.32064000000000004
0.31500000000000006
0.30938000000000004
0.31500000000000006
0.32064000000000004
0.32064000000000004
0.32064000000000004
0.31500000000000006
0.31500000000000006
0.32064000000000004
0.33188
0.32064000000000004
0.31500000000000006
0.31500000000000006
0.32626000000000005
0.32064000000000004
0.32064000000000004
0.32064000000000004
0.33188
0.32064000000000004
0.33188
0.3375
0.32626000000000005
0.31500000000000006
0.32626000000000005
0.32064000000000004
0.31500000000000006
0.32626000000000005
0.30376000000000003
0.30376000000000003
0.33188
0.3375
0.32626000000000005
0.32064000000000004
0.32064000000000004
0.32064000000000004
0.33188
0.33188
0.33188
0.33188
0.32626000000000005
0.32626000000000005
0.32064000000000004
0.32064000000000004
0.32064000000000004
0.32064000000000004
0.32626000000000005
0.34314000000000006
0.3375
0.33188
0.32064000000000004
0.32626000000000005
0.32626000000000005
0.32064000000000004
0.32064000000000004
0.33188
0.3375
0.3375
0.32626000000000005
0.32626000000000005
0.33188
0.3375
0.32626000000000005
0.32626000000000005
0.32626000000000005
0.33188
0.3375
0.3375
0.33188
0.33188
0.3375
0.3375
0.3375
0.33188
0.32064000000000004
0.33188
0.34314000000000006
0.3375
0.3375
0.3375
0.34314000000000006
0.3375
0.3375
0.3375
0.33188
0.3375
0.3375
0.32626000000000005
0.3375
0.3375
0.3375
0.33188
0.34876
0.34314000000000006
0.3375
0.3375
0.3375
0.3375
0.3375
0.33188
0.34314000000000006
0.35438000000000003
0.36564
0.37688000000000005
0.36000000000000004
0.37126000000000003
0.37688000000000005
0.3825
0.39938
0.405
0.39376000000000005
0.37688000000000005
0.38814000000000004
0.39376000000000005
0.405
0.4162600000000001
0.41064
0.42188000000000003
0.42750000000000005
0.42750000000000005
0.42188000000000003
0.42188000000000003
0.4162600000000001
0.39376000000000005
0.39938
0.41064
0.41064
0.405
0.39938
0.37688000000000005
0.35438000000000003
0.34314000000000006
0.3375
0.30938000000000004
0.30938000000000004
0.31500000000000006
0.30938000000000004
0.31500000000000006
0.31500000000000006
0.32064000000000004
0.30938000000000004
0.30938000000000004
0.30938000000000004
0.30376000000000003
0.30376000000000003
0.30376000000000003
0.29814
0.30938000000000004
0.31500000000000006
0.31500000000000006
0.32626000000000005
0.31500000000000006
0.30938000000000004
0.32064000000000004
0.32064000000000004
0.30938000000000004
0.30938000000000004
0.31500000000000006
0.30376000000000003
0.30938000000000004
0.30938000000000004
0.31500000000000006
0.32064000000000004
0.30938000000000004
0.32064000000000004
0.32064000000000004
0.33188
0.32064000000000004
0.30376000000000003
0.30938000000000004
0.32626000000000005
0.32626000000000005
0.31500000000000006
0.31500000000000006
0.31500000000000006
0.30938000000000004
0.30376000000000003
0.29814
0.27564000000000005
0.25876000000000005
0.22500000000000003
0.21938000000000002
0.22500000000000003
0.22500000000000003
0.23064
0.21376000000000006
0.23064
0.24750000000000005
0.28688
0.34876
0.38814000000000004
0.47250000000000003
0.61876
0.77624
0.93374
1.04624
1.125
1.1756199999999999
1.10812
0.97874
0.83812
0.74812
0.7031200000000001
0.6975
0.7031200000000001
0.65812
0.62438
0.64126
0.59064
0.4668800000000001
0.33188
0.25314000000000003
0.21938000000000002
0.19126000000000004
0.16314
0.16314
0.16314
0.19126000000000004
0.18564000000000003
0.21938000000000002
0.29250000000000004
0.31500000000000006
0.31500000000000006
0.29814
0.28126
0.28126
0.27564000000000005
0.27
0.27
0.27
0.27564000000000005
0.27564000000000005
0.26438000000000006
0.26438000000000006
0.27564000000000005
0.28126
0.28126
0.26438000000000006
0.27
0.27564000000000005
0.27
0.27564000000000005
0.27564000000000005
0.25314000000000003
0.26438000000000006
0.28126
0.27564000000000005
0.25876000000000005
0.27
0.27564000000000005
0.28126
0.28126
0.28126
0.27564000000000005
0.27564000000000005
0.28126
0.27
0.27
0.26438000000000006
0.28688
0.28688
0.27
0.27
0.26438000000000006
0.26438000000000006
0.25876000000000005
0.25876000000000005
0.26438000000000006
0.27
0.26438000000000006
0.27
0.27
0.26438000000000006
0.25314000000000003
0.25876000000000005
0.25314000000000003
0.25314000000000003
0.24750000000000005
0.25314000000000003
0.24750000000000005
0.24750000000000005
0.25876000000000005
0.25314000000000003
0.24750000000000005
0.25876000000000005
0.25876000000000005
0.24750000000000005
0.24188000000000004
0.25314000000000003
0.24750000000000005
0.24750000000000005
0.24750000000000005
0.24750000000000005
0.24750000000000005
0.24750000000000005
0.23626000000000003
0.21376000000000006
0.22500000000000003
0.22500000000000003
0.22500000000000003
0.20814000000000005
0.20814000000000005
0.21376000000000006
0.21376000000000006
0.2025
0.18564000000000003
0.18000000000000005
0.19688000000000005
0.19126000000000004
0.17438000000000003
0.16876000000000002
0.17438000000000003
0.18564000000000003
0.18564000000000003
0.18564000000000003
0.16876000000000002
0.15188000000000001
0.14626000000000006
0.15188000000000001
0.14064
0.12375999999999998
0.15188000000000001
0.15750000000000003
0.14626000000000006
0.14064
0.14626000000000006
0.15750000000000003
0.14626000000000006